#Spectrum  6-10-2015 18:09,
#Frequency  1305000000  Hz,
#Reference Level  -10  dBm,
#RF & IF Optimization  KinderGentler  ,
#Span  2600000000  Hz,
#Resolution Bandwidth  1000000  Hz,
#RBW Window Type  Kaiser  ,
#Function  Average  ,
#Detection  Average  ,
#NumberPoints  10401  ,
#XStart  5000000  Hz,
#XStop  2605000000  Hz,
5,-76.06548309
5.25,-75.62133026
5.5,-74.50234222
5.75,-73.35809326
6,-72.66760254
6.25,-72.61723328
6.5,-73.1860199
6.75,-74.05680084
7,-74.66034698
7.25,-74.82273102
7.5,-74.93806458
7.75,-75.106987
8,-74.17504883
8.25,-65.85214233
8.5,-53.82292175
8.75,-44.05264282
9,-36.55822372
9.25,-31.0063591
9.5,-27.17383385
9.75,-24.92525864
10,-24.1879921
10.25,-24.9395256
10.5,-27.2038517
10.75,-31.0554142
11,-36.63235092
11.25,-44.16439819
11.5,-54.02078629
11.75,-66.5225296
12,-75.94886017
12.25,-76.48497009
12.5,-76.21282196
12.75,-75.79421234
13,-75.26354218
13.25,-74.62731934
13.5,-74.04077911
13.75,-73.77290344
14,-73.98212433
14.25,-74.61395264
14.5,-75.45201874
14.75,-76.26525116
15,-76.92153931
15.25,-77.25868225
15.5,-77.04895782
15.75,-76.40769958
16,-75.76209259
16.25,-75.38156891
16.5,-75.32954407
16.75,-75.59438324
17,-76.0533371
17.25,-76.40486145
17.5,-76.39885712
17.75,-76.14533997
18,-75.87718201
18.25,-73.42754364
18.5,-64.44171906
18.75,-55.14474869
19,-47.76599121
19.25,-42.25007248
19.5,-38.42911911
19.75,-36.18413544
20,-35.4480896
20.25,-36.20063782
20.5,-38.46705627
20.75,-42.32384872
21,-47.91483307
21.25,-55.48294449
21.5,-65.26436615
21.75,-73.7600708
22,-74.27536011
22.25,-74.11354828
22.5,-74.41481781
22.75,-74.97439575
23,-75.3952713
23.25,-75.25869751
23.5,-74.69648743
23.75,-74.23001099
24,-74.22491455
24.25,-74.71867371
24.5,-75.37867737
24.75,-75.69932556
25,-75.64385223
25.25,-75.63557434
25.5,-75.89846802
25.75,-76.31595612
26,-76.618927
26.25,-76.50499725
26.5,-75.80297852
26.75,-74.75572205
27,-73.83403015
27.25,-73.36338806
27.5,-73.46616364
27.75,-74.0772171
28,-74.08514404
28.25,-66.06460571
28.5,-54.03397751
28.75,-44.25218582
29,-36.74145126
29.25,-31.17752457
29.5,-27.33746147
29.75,-25.08442307
30,-24.34453011
30.25,-25.09449005
30.5,-27.35774422
30.75,-31.20896339
31,-36.78833008
31.25,-44.33496094
31.5,-54.25419617
31.75,-66.8924408
32,-75.3761673
32.25,-76.03207397
32.5,-76.21783447
32.75,-76.44869232
33,-77.19445801
33.25,-78.58408356
33.5,-79.93017578
33.75,-79.82092285
34,-78.65660095
34.25,-77.80846405
34.5,-77.46641541
34.75,-77.10765839
35,-76.44721985
35.25,-75.8211441
35.5,-75.6144104
35.75,-75.89852142
36,-76.41218567
36.25,-76.69963074
36.5,-76.58851624
36.75,-76.3972702
37,-76.48584747
37.25,-76.97866058
37.5,-77.72457123
37.75,-78.22631836
38,-77.76344299
38.25,-73.77819061
38.5,-63.93380737
38.75,-54.41784286
39,-46.9443779
39.25,-41.38486481
39.5,-37.54224396
39.75,-35.2845459
40,-34.53888321
40.25,-35.28182983
40.5,-37.53622818
40.75,-41.374897
41,-46.93306732
41.25,-54.42996216
41.5,-64.13350677
41.75,-74.74272919
42,-77.88817596
42.25,-77.26624298
42.5,-76.55139923
42.75,-76.07646942
43,-75.97026825
43.25,-76.29130554
43.5,-76.96956635
43.75,-77.67601013
44,-77.89794922
44.25,-77.4065094
44.5,-76.40697479
44.75,-75.29468536
45,-74.48436737
45.25,-74.21000671
45.5,-74.45155334
45.75,-75.00251007
46,-75.60661316
46.25,-76.1248703
46.5,-76.59081268
46.75,-77.06298065
47,-77.39819336
47.25,-77.25354004
47.5,-76.57846069
47.75,-75.8527298
48,-76.03157806
48.25,-67.70522308
48.5,-54.41709137
48.75,-44.42354584
49,-36.8796463
49.25,-31.3128891
49.5,-27.47426414
49.75,-25.22226143
50,-24.48236847
50.25,-25.23124695
50.5,-27.49212265
50.75,-31.33823967
51,-36.90465546
51.25,-44.40987778
51.5,-54.16462708
51.75,-66.05103302
52,-73.97161102
52.25,-75.10536957
52.5,-75.66073608
52.75,-76.28544617
53,-77.00357819
53.25,-77.83647156
53.5,-78.67454529
53.75,-79.2891922
54,-79.36750793
54.25,-78.77302551
54.5,-77.96479034
54.75,-77.49487305
55,-77.42375946
55.25,-77.48757172
55.5,-77.61566162
55.75,-78.00337219
56,-78.58515167
56.25,-78.72868347
56.5,-78.0350647
56.75,-77.11126709
57,-76.60460663
57.25,-76.71337891
57.5,-77.35612488
57.75,-78.15869141
58,-78.12944794
58.25,-73.17959595
58.5,-62.75179291
58.75,-53.26755142
59,-45.82946396
59.25,-40.28503036
59.5,-36.44881058
59.75,-34.19475174
60,-33.45248032
60.25,-34.19994736
60.5,-36.46128845
60.75,-40.3113327
61,-45.88876724
61.25,-53.41796112
61.5,-63.15766907
61.75,-73.56212616
62,-76.66666412
62.25,-76.76352692
62.5,-76.94091034
62.75,-77.2893219
63,-77.67006683
63.25,-77.69733429
63.5,-77.18840027
63.75,-76.58334351
64,-76.34221649
64.25,-76.52098846
64.5,-76.92412567
64.75,-77.3044281
65,-77.43288422
65.25,-77.31246948
65.5,-77.24748993
65.75,-77.39019775
66,-77.48111725
66.25,-77.22542572
66.5,-76.70708466
66.75,-76.15203094
67,-75.70404053
67.25,-75.47620392
67.5,-84.0508728
67.75,-84.28310394
68,-80.56095123
68.25,-66.95618439
68.5,-54.40939713
68.75,-44.60446167
69,-37.09703445
69.25,-31.53524017
69.5,-27.6951313
69.75,-25.44067192
70,-24.69853973
70.25,-25.44558907
70.5,-27.70524025
70.75,-31.55138206
71,-37.12162018
71.25,-44.64547348
71.5,-54.49724197
71.75,-67.22445679
72,-81.37210083
72.25,-85.1180954
72.5,-84.52022552
72.75,-83.80278778
73,-83.40501404
73.25,-83.4274292
73.5,-83.85967255
73.75,-84.5381012
74,-85.15377045
74.25,-85.43841553
74.5,-85.33013153
74.75,-84.9132309
75,-84.38500977
75.25,-84.0227356
75.5,-84.03283691
75.75,-84.46500397
76,-85.24216461
76.25,-86.19532776
76.5,-86.98288727
76.75,-87.13495636
77,-86.68216705
77.25,-86.21821594
77.5,-86.08618164
77.75,-86.13421631
78,-84.90782166
78.25,-74.39304352
78.5,-62.00257874
78.75,-52.21363831
79,-44.71456528
79.25,-39.15756226
79.5,-35.32016754
79.75,-33.06733704
80,-32.3263092
80.25,-33.07421875
80.5,-35.33460999
80.75,-39.18114853
81,-44.75039673
81.25,-52.2686615
81.5,-62.10071945
81.75,-74.68442535
82,-85.95598602
82.25,-87.34093475
82.5,-87.10440063
82.75,-86.24797058
83,-85.26704407
83.25,-84.58299255
83.5,-84.32806396
83.75,-84.4101181
84,-84.60517883
84.25,-84.76234436
84.5,-84.93052673
84.75,-85.20013428
85,-85.58269501
85.25,-86.05083466
85.5,-86.51091766
85.75,-86.80146027
86,-86.86883545
86.25,-86.79457092
86.5,-86.64024353
86.75,-86.45183563
87,-86.29030609
87.25,-86.13176727
87.5,-85.8677597
87.75,-85.5206604
88,-82.24459839
88.25,-67.64997864
88.5,-54.8207016
88.75,-44.96005249
89,-37.4382515
89.25,-31.87170601
89.5,-28.02979279
89.75,-25.77470779
90,-25.03256607
90.25,-25.78006172
90.5,-28.04050827
90.75,-31.88779259
91,-37.45937347
91.25,-44.9851265
91.5,-54.84715271
91.75,-67.67154694
92,-81.6390686
92.25,-83.56494904
92.5,-83.6460495
92.75,-84.32197571
93,-85.56271362
93.25,-86.99391174
93.5,-87.80586243
93.75,-87.588974
94,-86.87399292
94.25,-86.17498016
94.5,-85.66495514
94.75,-85.43505859
95,-85.5644455
95.25,-85.98731232
95.5,-86.37180328
95.75,-86.3610611
96,-86.016716
96.25,-85.53300476
96.5,-84.88830566
96.75,-84.20611572
97,-83.89488983
97.25,-84.30797577
97.5,-85.53189087
97.75,-87.21628571
98,-87.63427734
98.25,-73.98109436
98.5,-60.8249855
98.75,-50.88819122
99,-43.34724045
99.25,-37.77532959
99.5,-33.93181992
99.75,-31.67632484
100,-30.93421555
100.25,-31.68215942
100.5,-33.94378281
100.75,-37.79396439
101,-43.37308884
101.25,-50.91915131
101.5,-60.82970428
101.75,-73.49432373
102,-82.91949463
102.25,-84.09477997
102.5,-84.99993134
102.75,-85.82326508
103,-86.43896484
103.25,-86.83304596
103.5,-86.63179779
103.75,-85.60538483
104,-84.3853302
104.25,-83.64492035
104.5,-83.56401825
104.75,-83.97340393
105,-84.58997345
105.25,-85.22021484
105.5,-85.73641968
105.75,-86.01306152
106,-86.11880493
106.25,-86.27283478
106.5,-86.46357727
106.75,-86.41569519
107,-86.05850983
107.25,-85.63857269
107.5,-85.3637619
107.75,-85.17414093
108,-81.1407547
108.25,-67.55112457
108.5,-54.97110748
108.75,-45.14963913
109,-37.63466644
109.25,-32.06913376
109.5,-28.22702789
109.75,-25.9714241
110,-25.228508
110.25,-25.97475052
110.5,-28.23305702
110.75,-32.07624054
111,-37.63912582
111.25,-45.14274597
111.5,-54.93223953
111.75,-67.43341827
112,-81.06663513
112.25,-86.54315186
112.5,-87.8079834
112.75,-87.46834564
113,-85.98465729
113.25,-84.41426086
113.5,-83.35112
113.75,-82.91442108
114,-82.97648621
114.25,-83.30717468
114.5,-83.71273041
114.75,-84.13339233
115,-84.59901428
115.25,-85.14936066
115.5,-85.75801086
115.75,-86.14827728
116,-85.88774872
116.25,-85.1072998
116.5,-84.42904663
116.75,-84.19577026
117,-84.32840729
117.25,-84.54899597
117.5,-84.70019531
117.75,-84.89102173
118,-84.20122528
118.25,-71.59633636
118.5,-58.61957169
118.75,-48.70099258
119,-41.15798569
119.25,-35.58232498
119.5,-31.73598099
119.75,-29.47859192
120,-28.73516464
120.25,-29.48188019
120.5,-31.74166298
120.75,-35.58787918
121,-41.15653229
121.25,-48.67102051
121.5,-58.47753143
121.75,-70.91609192
122,-82.8030014
122.25,-85.66446686
122.5,-86.13375092
122.75,-86.4719162
123,-86.76896667
123.25,-86.66539001
123.5,-86.0225296
123.75,-85.20998383
124,-84.54161072
124.25,-84.10057068
124.5,-83.94487
124.75,-84.13839722
125,-84.62822723
125.25,-85.23275757
125.5,-85.798172
125.75,-86.26522064
126,-86.53382111
126.25,-86.49178314
126.5,-86.25241852
126.75,-86.0927124
127,-86.13655853
127.25,-86.25608063
127.5,-86.26383972
127.75,-86.07616425
128,-82.77729797
128.25,-68.04498291
128.5,-55.17123032
128.75,-45.30323792
129,-37.78166199
129.25,-32.21630859
129.5,-28.37531281
129.75,-26.12075806
130,-25.37883759
130.25,-26.12638855
130.5,-28.3870163
130.75,-32.2352066
131,-37.81057739
131.25,-45.35025024
131.5,-55.26713562
131.75,-68.37483215
132,-85.24049377
132.25,-88.79219818
132.5,-87.99365234
132.75,-86.86784363
133,-86.05093384
133.25,-85.66287231
133.5,-85.43219757
133.75,-85.0504837
134,-84.52836609
134.25,-84.11992645
134.5,-84.04446411
134.75,-84.36473846
135,-84.94039917
135.25,-85.46708679
135.5,-85.73152161
135.75,-85.75133514
136,-85.57107544
136.25,-85.27635193
136.5,-85.06864166
136.75,-84.97994995
137,-84.74214172
137.25,-84.24337006
137.5,-83.82281494
137.75,-83.865448
138,-82.48184204
138.25,-68.80030823
138.5,-55.90675735
138.75,-46.02319717
139,-38.49346161
139.25,-32.92368317
139.5,-29.0802536
139.75,-26.82435036
140,-26.08167839
140.25,-26.82886505
140.5,-29.08934593
140.75,-32.93735886
141,-38.51153183
141.25,-46.04454803
141.5,-55.92400742
141.75,-68.7791748
142,-83.36907959
142.25,-86.31899261
142.5,-85.99953461
142.75,-85.76339722
143,-85.39998627
143.25,-84.92646027
143.5,-84.60826111
143.75,-84.46617126
144,-84.215271
144.25,-83.71114349
144.5,-83.13598633
144.75,-82.69421387
145,-82.48500824
145.25,-82.5426712
145.5,-82.83908844
145.75,-83.27166748
146,-83.68008423
146.25,-83.94210815
146.5,-84.12573242
146.75,-84.45275879
147,-85.09680176
147.25,-86.01887512
147.5,-86.84191895
147.75,-87.08766937
148,-85.79660797
148.25,-74.85778046
148.5,-62.44828415
148.75,-52.68211365
149,-45.19274521
149.25,-39.63854218
149.5,-35.80146027
149.75,-33.54810333
150,-32.80627441
150.25,-33.55328751
150.5,-35.81284714
150.75,-39.65929794
151,-45.23176575
151.25,-52.76519394
151.5,-62.64944077
151.75,-75.30764771
152,-85.56952667
152.25,-86.63106537
152.5,-86.50318146
152.75,-86.01413727
153,-85.35808563
153.25,-84.77427673
153.5,-84.46596527
153.75,-84.49077606
154,-84.80568695
154.25,-85.39666748
154.5,-86.19573212
154.75,-86.80532837
155,-86.72254944
155.25,-86.10570526
155.5,-85.49313354
155.75,-85.19845581
156,-85.29940796
156.25,-85.69470978
156.5,-86.18723297
156.75,-86.64985657
157,-86.93558502
157.25,-86.7281189
157.5,-86.01752472
157.75,-85.27391052
158,-83.85004425
158.25,-73.16725159
158.5,-60.69248962
158.75,-50.89099121
159,-43.3874054
159.25,-37.82739258
159.5,-33.98786545
159.75,-31.73358536
160,-30.99160576
160.25,-31.73898697
160.5,-33.99919128
160.75,-37.84595108
161,-43.41571808
161.25,-50.93256378
161.5,-60.74142838
161.75,-73.1140976
162,-83.58525848
162.25,-85.02890015
162.5,-85.29540253
162.75,-85.6025238
163,-85.75666046
163.25,-85.77297211
163.5,-85.828125
163.75,-85.93054962
164,-85.76391602
164.25,-85.05662537
164.5,-84.13208771
164.75,-83.52798462
165,-83.50965881
165.25,-84.08562469
165.5,-85.06533051
165.75,-86.05352783
166,-86.69911194
166.25,-87.04863739
166.5,-86.32879639
166.75,-86.68993378
167,-86.66287231
167.25,-86.20936584
167.5,-85.48688507
167.75,-84.66954803
168,-83.50598907
168.25,-75.92750549
168.5,-63.7465744
168.75,-53.85493469
169,-46.29592896
169.25,-40.70580673
169.5,-36.84811401
169.75,-34.58115387
170,-33.82894135
170.25,-34.56691742
170.5,-36.81729507
170.75,-40.65234756
171,-46.20585632
171.25,-53.69572449
171.5,-63.44687271
171.75,-75.58143616
172,-84.79831696
172.25,-85.46646118
172.5,-84.88356018
172.75,-84.40735626
173,-84.29177856
173.25,-84.49232483
173.5,-84.76922607
173.75,-84.92054749
174,-84.8829422
174.25,-84.6031189
174.5,-84.06590271
174.75,-83.48631287
175,-83.22890472
175.25,-83.54055023
175.5,-84.41395569
175.75,-85.5512619
176,-86.37197113
176.25,-86.33521271
176.5,-85.65383911
176.75,-85.08726501
177,-85.11433411
177.25,-85.75331116
177.5,-86.57572937
177.75,-86.88874054
178,-85.65464783
178.25,-75.24072266
178.5,-62.82165909
178.75,-53.01517868
179,-45.50187302
179.25,-39.9329071
179.5,-36.0854187
179.75,-33.82383347
180,-33.07492065
180.25,-33.81568146
180.5,-36.07003403
180.75,-39.91361237
181,-45.49036026
181.25,-53.05461502
181.5,-63.09557343
181.75,-76.69104004
182,-86.44919586
182.25,-85.23570251
182.5,-85.17345428
182.75,-85.45749664
183,-85.6438446
183.25,-85.39459229
183.5,-84.81970978
183.75,-84.24246979
184,-83.85077667
184.25,-83.6648941
184.5,-83.59403992
184.75,-83.52097321
185,-83.44810486
185.25,-83.56702423
185.5,-84.11723328
185.75,-85.13376617
186,-86.24477386
186.25,-86.84643555
186.5,-86.76914978
186.75,-86.28417969
187,-85.710495
187.25,-85.3887558
187.5,-85.48314667
187.75,-85.76654816
188,-85.41834259
188.25,-75.69519806
188.5,-62.9920578
188.75,-53.10417938
189,-45.57031631
189.25,-39.99638748
189.5,-36.14801407
189.75,-33.88645172
190,-33.13743591
190.25,-33.87745285
190.5,-36.12959671
190.75,-39.96730042
191,-45.52729034
191.25,-53.036129
191.5,-62.84931183
191.75,-75.19756317
192,-84.67127228
192.25,-86.00752258
192.5,-86.71822357
192.75,-87.45019531
193,-87.37802887
193.25,-86.14387512
193.5,-84.7138443
193.75,-83.79271698
194,-83.51303864
194.25,-83.77198029
194.5,-84.28429413
194.75,-84.65542603
195,-84.77209473
195.25,-84.90564728
195.5,-85.27894592
195.75,-85.82938385
196,-86.26732635
196.25,-86.34932709
196.5,-86.19338989
196.75,-86.09975433
197,-86.14802551
197.25,-86.18836975
197.5,-86.18237305
197.75,-86.35374451
198,-86.24254608
198.25,-75.71689606
198.5,-63.11956406
198.75,-53.30656433
199,-45.7973671
199.25,-40.2305069
199.5,-36.38363647
199.75,-34.12191391
200,-33.37229538
200.25,-34.11135864
200.5,-36.36149597
200.75,-40.19410706
201,-45.73991013
201.25,-53.20689774
201.5,-62.8843689
201.75,-74.71340942
202,-82.99938202
202.25,-83.52394104
202.5,-83.18052673
202.75,-83.12486267
203,-83.54756165
203.25,-84.35549164
203.5,-85.12189484
203.75,-85.37440491
204,-85.17021179
204.25,-84.86499786
204.5,-84.55302429
204.75,-84.10653687
205,-83.50031281
205.25,-82.90074158
205.5,-82.48188019
205.75,-82.31555939
206,-82.3985672
206.25,-82.73026276
206.5,-83.36986542
206.75,-84.34687042
207,-85.36593628
207.25,-85.73081207
207.5,-85.2842865
207.75,-84.69599152
208,-83.90484619
208.25,-76.38911438
208.5,-64.41417694
208.75,-54.62799835
209,-47.10977173
209.25,-41.53530121
209.5,-37.68347549
209.75,-35.41855621
210,-34.66708374
210.25,-35.40584564
210.5,-37.6582756
210.75,-41.49849319
211,-47.06418228
211.25,-54.58124924
211.5,-64.3784256
211.75,-76.34447479
212,-84.65583801
212.25,-86.92686462
212.5,-88.06907654
212.75,-87.66225433
213,-86.34923553
213.25,-85.36852264
213.5,-85.04927063
213.75,-85.15550995
214,-85.31542969
214.25,-85.36042786
214.5,-85.37334442
214.75,-85.48112488
215,-85.71408844
215.25,-85.97312927
215.5,-86.13018799
215.75,-86.19021606
216,-86.2335434
216.25,-86.26255035
216.5,-86.26976776
216.75,-86.38167572
217,-86.77500153
217.25,-87.40920258
217.5,-87.81053925
217.75,-87.44768524
218,-86.4659729
218.25,-82.82499695
218.5,-72.87182617
218.75,-63.2573204
219,-55.75640869
219.25,-50.18605804
219.5,-46.33675766
219.75,-44.07392502
220,-43.32403564
220.25,-44.06375504
220.5,-46.31651688
220.75,-50.15711212
221,-55.72748947
221.25,-63.2732811
221.5,-73.17351532
221.75,-83.85123444
222,-85.3765564
222.25,-84.64165497
222.5,-84.29312134
222.75,-84.17771149
223,-84.07118988
223.25,-83.78717041
223.5,-83.39064789
223.75,-83.06402588
224,-82.92016602
224.25,-83.01517487
224.5,-83.39557648
224.75,-84.04264069
225,-84.77567291
225.25,-85.30217743
225.5,-85.46076202
225.75,-85.34962463
226,-85.22015381
226.25,-85.33746338
226.5,-85.85363007
226.75,-86.7036438
227,-87.49467468
227.25,-87.62139893
227.5,-87.00978851
227.75,-86.23539734
228,-85.71063995
228.25,-83.05382538
228.5,-72.90075684
228.75,-63.0906868
229,-55.52787018
229.25,-49.93575287
229.5,-46.07775116
229.75,-43.8106308
230,-43.05780792
230.25,-43.7943573
230.5,-46.04198837
230.75,-49.87182236
231,-55.41422272
231.25,-62.87168503
231.5,-72.44837952
231.75,-82.74871826
232,-86.17941284
232.25,-85.80760193
232.5,-85.31197357
232.75,-85.14329529
233,-85.37970734
233.25,-85.89583588
233.5,-86.25821686
233.75,-85.93191528
234,-85.14100647
234.25,-84.64637756
234.5,-84.93172455
234.75,-86.05400848
235,-87.38301086
235.25,-87.62897491
235.5,-86.89335632
235.75,-86.24752808
236,-85.86107635
236.25,-85.48052216
236.5,-85.10838318
236.75,-84.90835571
237,-84.88305664
237.25,-84.85617828
237.5,-84.6242981
237.75,-84.16678619
238,-83.49757385
238.25,-77.83854675
238.5,-66.23039246
238.75,-56.41374207
239,-48.87556839
239.25,-43.29271317
239.5,-39.43761444
239.75,-37.17142868
240,-36.41922379
240.25,-37.15680695
240.5,-39.40654373
240.75,-43.24021912
241,-48.78948593
241.25,-56.26094818
241.5,-65.9067688
241.75,-77.16643524
242,-83.39981842
242.25,-83.98015594
242.5,-84.12854004
242.75,-84.42217255
243,-84.74893951
243.25,-85.01290131
243.5,-85.22657776
243.75,-85.42391205
244,-85.65503693
244.25,-86.17780304
244.5,-87.38156891
244.75,-89.05841064
245,-89.31198883
245.25,-87.65465546
245.5,-86.18896484
245.75,-85.51769257
246,-85.26779175
246.25,-84.94673157
246.5,-84.38587189
246.75,-83.74085236
247,-83.23753357
247.25,-83.05638885
247.5,-83.30903625
247.75,-84.03503418
248,-85.37326813
248.25,-82.02980042
248.5,-69.61669922
248.75,-59.61928558
249,-52.05772781
249.25,-46.47560883
249.5,-42.62327957
249.75,-40.35855103
250,-39.60629272
250.25,-40.3423996
250.5,-42.58911896
250.75,-46.41810989
251,-51.96166611
251.25,-59.43223572
251.5,-69.11090088
251.75,-80.47467804
252,-86.47918701
252.25,-87.08319855
252.5,-87.18756104
252.75,-87.23565674
253,-87.31867981
253.25,-87.36960602
253.5,-87.17679596
253.75,-86.73841095
254,-86.27850342
254.25,-85.92446899
254.5,-85.71038818
254.75,-85.65773773
255,-85.67575836
255.25,-85.61743164
255.5,-85.5401535
255.75,-85.60987091
256,-85.76772308
256.25,-85.79324341
256.5,-85.65659332
256.75,-85.51445007
257,-85.47889709
