#Spectrum  6-10-2015 18:02,
#Frequency  1305000000  Hz,
#Reference Level  -10  dBm,
#RF & IF Optimization  KinderGentler  ,
#Span  2600000000  Hz,
#Resolution Bandwidth  1000000  Hz,
#RBW Window Type  Kaiser  ,
#Function  Average  ,
#Detection  Average  ,
#NumberPoints  10401  ,
#XStart  5000000  Hz,
#XStop  2605000000  Hz,
5,-75.78282166
5.25,-75.40947723
5.5,-74.82116699
5.75,-74.37345886
6,-74.35796356
6.25,-74.81393433
6.5,-75.44953918
6.75,-75.64898682
7,-75.04377747
7.25,-74.03705597
7.5,-73.22890472
7.75,-72.94673157
8,-72.89904022
8.25,-65.72186279
8.5,-53.52213669
8.75,-43.70564651
9,-36.19478226
9.25,-30.63305664
9.5,-26.7936554
9.75,-24.53988266
10,-23.79829788
10.25,-24.54567528
10.5,-26.80533218
10.75,-30.650877
11,-36.2195015
11.25,-43.74002838
11.5,-53.58197784
11.75,-66.02316284
12,-74.91686249
12.25,-75.54561615
12.5,-75.48171234
12.75,-75.2694931
13,-75.12662506
13.25,-75.03453827
13.5,-74.87740326
13.75,-74.68725586
14,-74.60307312
14.25,-74.70751953
14.5,-74.9509964
14.75,-75.20100403
15,-75.35423279
15.25,-75.35344696
15.5,-75.18977356
15.75,-74.95576477
16,-74.75772095
16.25,-74.6151886
16.5,-74.54608917
16.75,-74.64141846
17,-74.93335724
17.25,-75.21682739
17.5,-75.19842529
17.75,-74.94125366
18,-74.61660004
18.25,-72.68684387
18.5,-64.41020966
18.75,-54.96885681
19,-47.46489716
19.25,-41.88773727
19.5,-38.03635406
19.75,-35.77381516
20,-35.02470779
20.25,-35.76368713
20.5,-38.01054764
20.75,-41.83087158
21,-47.33851242
21.25,-54.67976761
21.5,-63.82348251
21.75,-72.78042603
22,-76.32661438
22.25,-76.73919678
22.5,-76.53677368
22.75,-76.3678894
23,-76.30498505
23.25,-76.13127899
23.5,-75.81364441
23.75,-75.57248688
24,-75.60910797
24.25,-75.98628235
24.5,-76.58140564
24.75,-77.00205231
25,-76.81954956
25.25,-76.14762115
25.5,-75.46445465
25.75,-75.07500458
26,-75.07327271
26.25,-75.41485596
26.5,-75.85205078
26.75,-75.97639465
27,-75.65671539
27.25,-75.23632813
27.5,-75.06749725
27.75,-75.24868774
28,-75.4548111
28.25,-66.37646484
28.5,-53.72528458
28.75,-43.87247849
29,-36.35690308
29.25,-30.79384041
29.5,-26.95378685
29.75,-24.69993782
30,-23.9589653
30.25,-24.70801353
30.5,-26.97109222
30.75,-30.82342339
31,-36.40617752
31.25,-43.95956421
31.5,-53.89481735
31.75,-66.74330139
32,-76.96287537
32.25,-77.86084747
32.5,-77.61978149
32.75,-76.77439117
33,-76.12528229
33.25,-76.00547028
33.5,-76.21998596
33.75,-76.37979889
34,-76.31163788
34.25,-76.01753998
34.5,-75.46334839
34.75,-74.84854126
35,-74.61339569
35.25,-75.06312561
35.5,-76.17057037
35.75,-77.44815826
36,-78.12628174
36.25,-78.12341309
36.5,-77.9413147
36.75,-77.65983582
37,-77.05604553
37.25,-76.15881348
37.5,-75.26272583
37.75,-74.60842896
38,-74.29392242
38.25,-72.55046082
38.5,-63.60803223
38.75,-54.0345993
39,-46.54463196
39.25,-40.98441696
39.5,-37.14262772
39.75,-34.88519287
40,-34.13931274
40.25,-34.88205338
40.5,-37.13716888
40.75,-40.98047638
41,-46.55819702
41.25,-54.13260269
41.5,-64.12382507
41.75,-74.62731934
42,-76.23956299
42.25,-76.24040985
42.5,-76.26495361
42.75,-76.17344666
43,-76.09757996
43.25,-76.05448914
43.5,-76.04593658
43.75,-76.10127258
44,-76.24085236
44.25,-76.41934967
44.5,-76.51000977
44.75,-76.51932526
45,-76.66818237
45.25,-77.04723358
45.5,-77.39797211
45.75,-77.35742188
46,-76.83769226
46.25,-76.08639526
46.5,-75.50196075
46.75,-75.34896851
47,-75.58600616
47.25,-75.9274292
47.5,-76.13857269
47.75,-76.21895599
48,-75.3487854
48.25,-66.10968781
48.5,-53.83818817
48.75,-44.03625488
49,-36.52456284
49.25,-30.95931816
49.5,-27.11657333
49.75,-24.86016655
50,-24.11666298
50.25,-24.86293793
50.5,-27.12260628
50.75,-30.97028732
51,-36.54607773
51.25,-44.08768845
51.5,-53.99356842
51.75,-66.66446686
52,-75.85359955
52.25,-76.2008667
52.5,-76.10951996
52.75,-76.22457123
53,-76.59629059
53.25,-77.00138092
53.5,-77.09267426
53.75,-76.82859039
54,-76.48486328
54.25,-76.31017303
54.5,-76.39911652
54.75,-76.68753815
55,-76.98321533
55.25,-77.07563019
55.5,-76.87333679
55.75,-76.51826477
56,-76.30384064
56.25,-76.452034
56.5,-77.04027557
56.75,-77.97499847
57,-78.81096649
57.25,-78.85060883
57.5,-78.0528717
57.75,-76.97208405
58,-75.76039886
58.25,-72.11305237
58.5,-62.46646881
58.75,-52.93650436
59,-45.46405411
59.25,-39.9105072
59.5,-36.07302856
59.75,-33.81879044
60,-33.07534027
60.25,-33.82007217
60.5,-36.07728958
60.75,-39.923172
61,-45.50167465
61.25,-53.05456924
61.5,-62.88589478
61.75,-73.49365234
62,-77.06876373
62.25,-77.28813934
62.5,-76.84078979
62.75,-76.45041656
63,-76.64382935
63.25,-77.53704071
63.5,-78.8380661
63.75,-79.72314453
64,-79.44969177
64.25,-78.5868988
64.5,-78.0327301
64.75,-78.0381012
65,-78.37948608
65.25,-78.67372131
65.5,-78.60818481
65.75,-78.04545593
66,-77.13196564
66.25,-76.16990662
66.5,-75.40881348
66.75,-75.03392029
67,-75.10569763
67.25,-75.42815399
67.5,-83.71405029
67.75,-84.03683472
68,-82.47666168
68.25,-67.1540451
68.5,-54.16358185
68.75,-44.28378677
69,-36.7595253
69.25,-31.19167709
69.5,-27.34777832
69.75,-25.09006882
70,-24.34477615
70.25,-25.08864403
70.5,-27.34499359
70.75,-31.18787193
71,-36.75595093
71.25,-44.28447723
71.5,-54.18011475
71.75,-67.19351196
72,-81.79750824
72.25,-83.86911011
72.5,-84.57489014
72.75,-85.3009491
73,-85.66533661
73.25,-85.72834015
73.5,-85.8542099
73.75,-86.33403015
74,-87.03023529
74.25,-87.19794464
74.5,-86.280159
74.75,-84.8799057
75,-83.7303772
75.25,-83.02766418
75.5,-82.68816376
75.75,-82.67591858
76,-83.10396576
76.25,-84.04387665
76.5,-85.26861572
76.75,-86.21237183
77,-86.50682068
77.25,-86.40003204
77.5,-86.18225098
77.75,-85.89533234
78,-84.80713654
78.25,-74.47875214
78.5,-61.82496262
78.75,-51.94674683
79,-44.41418076
79.25,-38.84181595
79.5,-34.99599457
79.75,-32.73777008
80,-31.99274063
80.25,-32.73742294
80.5,-34.99522018
80.75,-38.84061813
81,-44.41378784
81.25,-51.95522308
81.5,-61.89393234
81.75,-75.02094269
82,-86.47530365
82.25,-86.24179077
82.5,-85.90041351
82.75,-85.5734024
83,-85.34643555
83.25,-85.1166153
83.5,-84.74321747
83.75,-84.29554749
84,-84.01094055
84.25,-84.07532501
84.5,-84.45567322
84.75,-84.83628082
85,-84.84561157
85.25,-84.54515839
85.5,-84.28684235
85.75,-84.16500092
86,-84.02682495
86.25,-83.89694214
86.5,-84.06652832
86.75,-84.71270752
87,-85.59255219
87.25,-86.17508698
87.5,-86.36247253
87.75,-86.5331955
88,-82.25698853
88.25,-67.21163177
88.5,-54.46648026
88.75,-44.63058853
89,-37.11448288
89.25,-31.54778862
89.5,-27.70376587
89.75,-25.44581413
90,-24.70047569
90.25,-25.44456291
90.5,-27.70150566
90.75,-31.54519844
91,-37.1130867
91.25,-44.63339996
91.5,-54.47457123
91.75,-67.17121124
92,-81.57485962
92.25,-85.82480621
92.5,-85.58296967
92.75,-85.22501373
93,-84.87742615
93.25,-84.67153931
93.5,-84.75210571
93.75,-85.04325867
94,-85.21341705
94.25,-85.00754547
94.5,-84.56267548
94.75,-84.20182037
95,-84.20127106
95.25,-84.74820709
95.5,-85.78847504
95.75,-86.72618103
96,-86.83955383
96.25,-86.48094177
96.5,-86.30957794
96.75,-86.32583618
97,-86.18987274
97.25,-85.79389954
97.5,-85.35165405
97.75,-85.00158691
98,-83.55096436
98.25,-72.95716095
98.5,-60.4281044
98.75,-50.58195114
99,-43.05819321
99.25,-37.48860931
99.5,-33.64360428
99.75,-31.38532066
100,-30.63967705
100.25,-31.38309669
100.5,-33.63848495
100.75,-37.4789505
101,-43.04091263
101.25,-50.55448914
101.5,-60.41806412
101.75,-73.33459473
102,-83.80192566
102.25,-82.55361176
102.5,-81.9901123
102.75,-82.17927551
103,-82.85144806
103.25,-83.66105652
103.5,-84.2605896
103.75,-84.67455292
104,-85.23922729
104.25,-85.97264862
104.5,-86.28456879
104.75,-85.85333252
105,-85.3106842
105.25,-85.21470642
105.5,-85.59296417
105.75,-86.1880722
106,-86.67771912
106.25,-86.79992676
106.5,-86.60617065
106.75,-86.48635864
107,-86.68204498
107.25,-87.03417206
107.5,-87.18344879
107.75,-86.93132019
108,-82.54988861
108.25,-67.54081726
108.5,-54.71985626
108.75,-44.85876846
109,-37.33507156
109.25,-31.7665062
109.5,-27.92239189
109.75,-25.66490364
110,-24.92005157
110.25,-25.66441345
110.5,-27.92115784
110.75,-31.76362991
111,-37.32812881
111.25,-44.84043503
111.5,-54.66570663
111.75,-67.35121918
112,-81.66547394
112.25,-85.53700256
112.5,-86.12844086
112.75,-86.76483154
113,-86.89306641
113.25,-86.56287384
113.5,-86.32709503
113.75,-86.30221558
114,-86.18094635
114.25,-85.89713287
114.5,-85.74202728
114.75,-85.8199234
115,-85.84421539
115.25,-85.49750519
115.5,-84.9102478
115.75,-84.53669739
116,-84.77505493
116.25,-85.81296539
116.5,-87.41725922
116.75,-88.49265289
117,-88.13473511
117.25,-87.32318878
117.5,-86.90596771
117.75,-86.91386414
118,-84.86212158
118.25,-71.21952057
118.5,-58.33541489
118.75,-48.43834305
119,-40.90031815
119.25,-35.3255043
119.5,-31.47847176
119.75,-29.21962357
120,-28.47432518
120.25,-29.21908188
120.5,-31.47737503
120.75,-35.32397461
121,-40.89950943
121.25,-48.44465637
121.5,-58.38360977
121.75,-71.50214386
122,-84.49848938
122.25,-84.98605347
122.5,-85.10655975
122.75,-85.51573181
123,-85.90080261
123.25,-85.86821747
123.5,-85.3802948
123.75,-84.79540253
124,-84.36969757
124.25,-84.11837006
124.5,-83.97306824
124.75,-83.88903046
125,-83.84986115
125.25,-83.86328125
125.5,-84.0043869
125.75,-84.4263916
126,-85.23148346
126.25,-86.20966339
126.5,-86.75313568
126.75,-86.56564331
127,-86.07318878
127.25,-85.58680725
127.5,-85.09858704
127.75,-84.58695221
128,-81.05807495
128.25,-67.46136475
128.5,-54.84277725
128.75,-45.02449799
129,-37.51262665
129.25,-31.9475956
129.5,-28.10446548
129.75,-25.84706116
130,-25.10201836
130.25,-25.84618378
130.5,-28.1029377
130.75,-31.9463768
131,-37.51511765
131.25,-45.04376602
131.5,-54.93751144
131.75,-67.98103333
132,-84.33668518
132.25,-86.89302826
132.5,-86.50083923
132.75,-86.49839783
133,-86.58859253
133.25,-86.41196442
133.5,-85.98362732
133.75,-85.56328583
134,-85.33181763
134.25,-85.36421204
134.5,-85.58900452
134.75,-85.79282379
135,-85.95067596
135.25,-86.39041138
135.5,-87.29611969
135.75,-88.06006622
136,-87.62158203
136.25,-86.41231537
136.5,-85.57626343
136.75,-85.51879883
137,-86.03488159
137.25,-86.49615479
137.5,-86.44787598
137.75,-86.05430603
138,-82.11399078
138.25,-68.18746948
138.5,-55.56663132
138.75,-45.75772476
139,-38.25210953
139.25,-32.69073868
139.5,-28.84974098
139.75,-26.59372139
140,-25.84971428
140.25,-26.59495544
140.5,-28.85324097
140.75,-32.69929123
141,-38.27302933
141.25,-45.81188965
141.5,-55.7252121
141.75,-68.74003601
142,-83.09085846
142.25,-85.38890839
142.5,-85.66916656
142.75,-85.93539429
143,-86.39234924
143.25,-86.93423462
143.5,-87.04194641
143.75,-86.42098236
144,-85.59687042
144.25,-85.16468048
144.5,-85.29180908
144.75,-85.77988434
145,-86.07016754
145.25,-85.69548798
145.5,-85.07816315
145.75,-84.93032837
146,-85.4901886
146.25,-86.43983459
146.5,-87.01524353
146.75,-86.82239532
147,-86.31349182
147.25,-85.88650513
147.5,-85.63375854
147.75,-85.60166168
148,-84.4125824
148.25,-74.48222351
148.5,-62.2232933
148.75,-52.42303848
149,-44.90581894
149.25,-39.33586502
149.5,-35.48950195
149.75,-33.22993469
150,-32.48315811
150.25,-33.2255249
150.5,-35.47989273
150.75,-39.31908798
151,-44.87804413
151.25,-52.37734222
151.5,-62.14935303
151.75,-74.40330505
152,-85.06427002
152.25,-86.94161224
152.5,-86.69968414
152.75,-86.49510193
153,-86.64181519
153.25,-87.1003952
153.5,-87.6832962
153.75,-88.02724457
154,-87.69150543
154.25,-86.74980164
154.5,-85.80532837
154.75,-85.26018524
155,-85.08141327
155.25,-84.96914673
155.5,-84.68684387
155.75,-84.28839874
156,-83.95155334
156.25,-83.79485321
156.5,-83.88946533
156.75,-84.23058319
157,-84.6669693
157.25,-85.02118683
157.5,-85.35735321
157.75,-85.87174225
158,-84.81611633
158.25,-73.10150909
158.5,-60.54968262
158.75,-50.72267914
159,-43.20222473
159.25,-37.63160324
159.5,-33.7851944
159.75,-31.52621651
160,-30.78098488
160.25,-31.52626991
160.5,-33.78555679
160.75,-37.63302994
161,-43.20671082
161.25,-50.7366066
161.5,-60.60211563
161.75,-73.37672424
162,-85.86151886
162.25,-86.68173218
162.5,-86.17658234
162.75,-85.71005249
163,-85.40135956
163.25,-85.3160553
163.5,-85.26078033
163.75,-84.9861908
164,-84.60482788
164.25,-84.41650391
164.5,-84.47787476
164.75,-84.59845734
165,-84.60505676
165.25,-84.53145599
165.5,-84.56143188
165.75,-84.82736206
166,-85.22618866
166.25,-85.41650391
166.5,-84.8984375
166.75,-84.43830109
167,-84.13257599
167.25,-84.08638763
167.5,-84.42163086
167.75,-85.05580139
168,-84.40238953
168.25,-75.20264435
168.5,-63.13142776
168.75,-53.38262177
169,-45.88844299
169.25,-40.33071136
169.5,-36.49156952
169.75,-34.23683548
170,-33.49393845
170.25,-34.24009705
170.5,-36.49877167
170.75,-40.34309387
171,-45.90740585
171.25,-53.40710831
171.5,-63.15307617
171.75,-75.3110733
172,-85.96805573
172.25,-87.38820648
172.5,-86.88069916
172.75,-86.47153473
173,-86.00279999
173.25,-85.36135864
173.5,-84.74063873
173.75,-84.25521088
174,-83.87950897
174.25,-83.68811798
174.5,-83.85889435
174.75,-84.4712677
175,-85.3742981
175.25,-86.22875977
175.5,-86.83766937
175.75,-87.3014679
176,-87.51698303
176.25,-87.11897278
176.5,-86.31887817
176.75,-85.75648499
177,-85.73529816
177.25,-86.09088135
177.5,-86.32615662
177.75,-86.1029892
178,-84.76951599
178.25,-74.8131485
178.5,-62.51589966
178.75,-52.75636292
179,-45.26910019
179.25,-39.71601105
179.5,-35.87913895
179.75,-33.62534332
180,-32.88261795
180.25,-33.62839127
180.5,-35.88617706
180.75,-39.72945404
181,-45.29407501
181.25,-52.80205917
181.5,-62.58223343
181.75,-74.70606995
182,-84.13814545
182.25,-85.66505432
182.5,-85.46649933
182.75,-85.14717102
183,-85.07048035
183.25,-85.23314667
183.5,-85.4201889
183.75,-85.40904236
184,-85.17497253
184.25,-84.89459229
184.5,-84.7567215
184.75,-84.81768036
185,-84.96544647
185.25,-84.970047
185.5,-84.70707703
185.75,-84.34242249
186,-84.12116241
186.25,-84.12450409
186.5,-84.28171539
186.75,-84.50770569
187,-84.80139923
187.25,-85.12453461
187.5,-85.22341156
187.75,-84.97186279
188,-84.85028076
188.25,-76.02572632
188.5,-62.87633133
188.75,-52.86256027
189,-45.29352188
189.25,-39.71013641
189.5,-35.86083603
189.75,-33.60154724
190,-32.85617065
190.25,-33.60029602
190.5,-35.8560791
190.75,-39.69485474
191,-45.24705887
191.25,-52.7192955
191.5,-62.39781189
191.75,-74.32084656
192,-83.95821381
192.25,-85.33039856
192.5,-85.18249512
192.75,-85.12522125
193,-85.3312912
193.25,-85.60199738
193.5,-85.58943176
193.75,-85.30294037
194,-85.04149628
194.25,-84.83719635
194.5,-84.50221252
194.75,-84.13028717
195,-84.06763458
195.25,-84.46269989
195.5,-85.0914917
195.75,-85.46821594
196,-85.20677948
196.25,-84.42942047
196.5,-83.62545776
196.75,-83.14494324
197,-83.01547241
197.25,-83.10688782
197.5,-83.38951111
197.75,-83.98927307
198,-84.54019928
198.25,-75.54785919
198.5,-62.9774704
198.75,-53.14358902
199,-45.63170242
199.25,-40.0681572
199.5,-36.2259903
199.75,-33.96902084
200,-33.22398758
200.25,-33.96767807
200.5,-36.22302628
200.75,-40.06286621
201,-45.62207031
201.25,-53.1232338
201.5,-62.91539764
201.75,-75.22902679
202,-84.14241028
202.25,-84.47821808
202.5,-84.26345825
202.75,-84.13064575
203,-83.98912048
203.25,-83.88909149
203.5,-83.93533325
203.75,-84.139534
204,-84.46976471
204.25,-84.86378479
204.5,-85.07743073
204.75,-84.81858063
205,-84.24409485
205.25,-83.84223938
205.5,-83.94586945
205.75,-84.59928894
206,-85.52685547
206.25,-86.10289764
206.5,-85.78692627
206.75,-84.79415131
207,-83.75010681
207.25,-83.11148071
207.5,-83.10378265
207.75,-83.79363251
208,-84.99941254
208.25,-77.34602356
208.5,-64.52774048
208.75,-54.61415863
209,-47.08262253
209.25,-41.51501465
209.5,-37.67300034
209.75,-35.41733932
210,-34.6740303
210.25,-35.41980743
210.5,-37.67820358
210.75,-41.52342606
211,-47.09380722
211.25,-54.61945724
211.5,-64.45904541
211.75,-76.80435944
212,-86.40952301
212.25,-87.3156662
212.5,-86.43021393
212.75,-85.72229004
213,-85.44659424
213.25,-85.33869934
213.5,-85.24759674
213.75,-85.32117462
214,-85.63331604
214.25,-85.87815094
214.5,-85.64206696
214.75,-85.05185699
215,-84.63838196
215.25,-84.72692108
215.5,-85.26881409
215.75,-85.94966125
216,-86.39697266
216.25,-86.28462982
216.5,-85.55845642
216.75,-84.71979523
217,-84.30283356
217.25,-84.42891693
217.5,-84.89042664
217.75,-85.36911774
218,-85.31616211
218.25,-81.6894989
218.5,-72.17392731
218.75,-62.81809998
219,-55.39865875
219.25,-49.85712814
219.5,-46.02008438
219.75,-43.76308823
220,-43.01564789
220.25,-43.75450897
220.5,-46.00091553
220.75,-49.82250595
221,-55.33859253
221.25,-62.71469879
221.5,-72.03166962
221.75,-82.01499939
222,-86.91461182
222.25,-87.31069946
222.5,-86.89595032
222.75,-86.41539001
223,-86.10731506
223.25,-86.02861023
223.5,-86.00033569
223.75,-85.88512421
224,-85.79633331
224.25,-85.84172058
224.5,-85.97201538
224.75,-86.13247681
225,-86.24359131
225.25,-86.05540466
225.5,-85.44503021
225.75,-84.73215485
226,-84.31719971
226.25,-84.3533783
226.5,-84.74755859
226.75,-85.2432785
227,-85.55023193
227.25,-85.52014923
227.5,-85.2563324
227.75,-85.03630829
228,-84.94664764
228.25,-81.63491821
228.5,-71.28913879
228.75,-61.67704773
229,-54.21048737
229.25,-48.66283035
229.5,-44.82743835
229.75,-42.57357788
230,-41.83010101
230.25,-42.5747261
230.5,-44.83068466
230.75,-48.6698494
231,-54.22198486
231.25,-61.68254089
231.5,-71.19844818
231.75,-81.01245117
232,-84.51655579
232.25,-85.19454193
232.5,-85.73186493
232.75,-86.16786194
233,-86.34700012
233.25,-86.29856873
233.5,-86.28042603
233.75,-86.34635925
234,-86.25352478
234.25,-85.95690918
234.5,-85.73151398
234.75,-85.66678619
235,-85.59819031
235.25,-85.56817627
235.5,-85.8757019
235.75,-86.58499146
236,-87.21326447
236.25,-87.13113403
236.5,-86.53269196
236.75,-86.07381439
237,-86.02698517
237.25,-86.23060608
237.5,-86.33460236
237.75,-86.15089417
238,-85.87760162
238.25,-78.71302032
238.5,-65.90879822
238.75,-55.90845871
239,-48.33984756
239.25,-42.75612259
239.5,-38.90631485
239.75,-36.64653778
240,-35.90105438
240.25,-36.64608765
240.5,-38.90529251
240.75,-42.75351715
241,-48.33073807
241.25,-55.87092209
241.5,-65.73715973
241.75,-77.79542542
242,-84.21274567
242.25,-84.58773041
242.5,-84.74228668
242.75,-84.85871124
243,-85.0736618
243.25,-85.34728241
243.5,-85.34371185
243.75,-84.94807434
244,-84.53295898
244.25,-84.51325226
244.5,-85.04134369
244.75,-85.91104126
245,-86.42115784
245.25,-85.88655853
245.5,-84.75409698
245.75,-83.88676453
246,-83.67635345
246.25,-84.14093018
246.5,-84.97919464
246.75,-85.43733978
247,-84.92362213
247.25,-84.02246857
247.5,-83.53895569
247.75,-83.71479034
248,-84.58013916
248.25,-81.31589508
248.5,-69.16645813
248.75,-59.15583801
249,-51.57817841
249.25,-45.98917389
249.5,-42.13598633
249.75,-39.8737793
250,-39.12600327
250.25,-39.86813354
250.5,-42.12285995
250.75,-45.96350098
251,-51.52629852
251.25,-59.03154373
251.5,-68.77171326
251.75,-80.27222443
252,-86.48619843
252.25,-86.47737885
252.5,-85.84046936
252.75,-85.49588776
253,-85.45317841
253.25,-85.43271637
253.5,-85.2636795
253.75,-85.14946747
254,-85.35613251
254.25,-85.83641052
254.5,-86.25602722
254.75,-86.39874268
255,-86.3496933
255.25,-86.1706543
255.5,-85.81278992
255.75,-85.3161087
256,-84.83036804
256.25,-84.50557709
256.5,-84.45342255
256.75,-84.74382019
